t,energy
5.274808779358863831e-02,8.041752874851226807e-02
1.030635535717010498e-01,7.549159973859786987e-02
1.509334594011306763e-01,7.171260565519332886e-02
2.037029415369033813e-01,6.810769438743591309e-02
2.537723779678344727e-01,6.505783647298812866e-02
3.009816706180572510e-01,6.242998316884040833e-02
3.532603085041046143e-01,5.974564701318740845e-02
4.025013148784637451e-01,5.739751085638999939e-02
4.527682065963745117e-01,5.515396222472190857e-02
5.041106939315795898e-01,5.300231277942657471e-02
5.521171092987060547e-01,5.110358446836471558e-02
6.010740995407104492e-01,4.926817864179611206e-02
6.510496735572814941e-01,4.748997092247009277e-02
7.020736932754516602e-01,4.576526209712028503e-02
7.541598677635192871e-01,4.409125074744224548e-02
8.024718165397644043e-01,4.261066392064094543e-02
8.517599105834960938e-01,4.116649553179740906e-02
9.020633101463317871e-01,3.975698724389076233e-02
9.534230828285217285e-01,3.838067874312400818e-02
1.000569462776184082e+00,3.716962411999702454e-02
1.054019451141357422e+00,3.585344925522804260e-02
1.103144884109497070e+00,3.469396010041236877e-02
1.153274655342102051e+00,3.355751186609268188e-02
1.204467177391052246e+00,3.244299069046974182e-02
1.250882983207702637e+00,3.147080168128013611e-02
1.304129719734191895e+00,3.039787523448467255e-02
1.352420330047607422e+00,2.946206368505954742e-02
1.401647448539733887e+00,2.854273468255996704e-02
1.451865673065185547e+00,2.763922326266765594e-02
1.503118634223937988e+00,2.675123326480388641e-02
1.555450797080993652e+00,2.587840147316455841e-02
1.602163314819335938e+00,2.512691542506217957e-02
1.656647443771362305e+00,2.428182400763034821e-02
1.705314159393310547e+00,2.355435863137245178e-02
1.754922389984130859e+00,2.283828333020210266e-02
1.805496335029602051e+00,2.213356085121631622e-02
1.857087373733520508e+00,2.143985033035278320e-02
1.902160406112670898e+00,2.085378021001815796e-02
1.955774545669555664e+00,2.017996460199356079e-02
2.002650737762451172e+00,1.961078681051731110e-02
2.050408124923706055e+00,1.904927194118499756e-02
2.107270479202270508e+00,1.840404793620109558e-02
2.156996011734008789e+00,1.785968802869319916e-02
2.207679510116577148e+00,1.732314378023147583e-02
2.250676393508911133e+00,1.688195951282978058e-02
2.303220987319946289e+00,1.635956577956676483e-02
2.356852769851684570e+00,1.584467291831970215e-02
2.402418613433837891e+00,1.542120985686779022e-02
2.458174705505371094e+00,1.491997390985488892e-02
2.505526781082153320e+00,1.450833585113286972e-02
2.553721427917480469e+00,1.410210132598876953e-02
2.602794170379638672e+00,1.370123028755187988e-02
2.652776479721069336e+00,1.330568827688694000e-02
2.703711509704589844e+00,1.291538029909133911e-02
2.755645751953125000e+00,1.253021880984306335e-02
2.808603048324584961e+00,1.215039379894733429e-02
2.851708173751831055e+00,1.185046974569559097e-02
2.906555891036987305e+00,1.148040592670440674e-02
2.951237440109252930e+00,1.118821371346712112e-02
3.008132457733154297e+00,1.082775462418794632e-02
3.054520130157470703e+00,1.054317131638526917e-02
3.101717472076416016e+00,1.026190817356109619e-02
3.161858081817626953e+00,9.915301576256752014e-03
3.210897684097290039e+00,9.642031975090503693e-03
3.260799407958984375e+00,9.372279979288578033e-03
3.311599969863891602e+00,9.106006473302841187e-03
3.350313663482666016e+00,8.908563293516635895e-03
3.402782917022705078e+00,8.648291230201721191e-03
3.456259727478027344e+00,8.391439914703369141e-03
3.510760545730590820e+00,8.138141594827175140e-03
3.552316665649414062e+00,7.950535044074058533e-03
3.608667850494384766e+00,7.703522220253944397e-03
3.651665449142456055e+00,7.520589511841535568e-03
3.710016727447509766e+00,7.279752753674983978e-03
3.754575967788696289e+00,7.101412862539291382e-03
3.815096139907836914e+00,6.866665557026863098e-03
3.861326932907104492e+00,6.692988798022270203e-03
3.908285617828369141e+00,6.521385163068771362e-03
3.955998897552490234e+00,6.351837888360023499e-03
4.004494190216064453e+00,6.184333004057407379e-03
4.053801059722900391e+00,6.018857005983591080e-03
4.103950500488281250e+00,5.855396389961242676e-03
4.154974937438964844e+00,5.693940911442041397e-03
4.206904888153076172e+00,5.534507334232330322e-03
4.259748935699462891e+00,5.377171561121940613e-03
4.313529014587402344e+00,5.221936851739883423e-03
4.368283271789550781e+00,5.068786907941102982e-03
4.405346393585205078e+00,4.967839457094669342e-03
4.461812973022460938e+00,4.818139597773551941e-03
4.500056266784667969e+00,4.719481803476810455e-03
4.558354377746582031e+00,4.573200829327106476e-03
4.617814540863037109e+00,4.428966436535120010e-03
4.658113479614257812e+00,4.333984572440385818e-03
4.719567298889160156e+00,4.193285014480352402e-03
4.761229038238525391e+00,4.100662190467119217e-03
4.803463935852050781e+00,4.008980933576822281e-03
4.867923259735107422e+00,3.873228793963789940e-03
4.911659240722656250e+00,3.783929161727428436e-03
4.956018447875976562e+00,3.695841878652572632e-03
5.000983715057373047e+00,3.611149732023477554e-03
5.067471027374267578e+00,3.534751245751976967e-03
5.105853557586669922e+00,3.513813717290759087e-03
5.156465053558349609e+00,3.440927248448133469e-03
5.205755233764648438e+00,3.360369475558400154e-03
5.254954338073730469e+00,3.283001715317368507e-03
5.304182052612304688e+00,3.206901485100388527e-03
5.353340625762939453e+00,3.134965430945158005e-03
5.402558803558349609e+00,3.063243580982089043e-03
5.451680183410644531e+00,2.996376715600490570e-03
5.500874519348144531e+00,2.928842790424823761e-03
5.566388607025146484e+00,2.844200935214757919e-03
5.615485668182373047e+00,2.784217009320855141e-03
5.664630413055419922e+00,2.724459394812583923e-03
5.713726520538330078e+00,2.668174682185053825e-03
5.762841701507568359e+00,2.613065997138619423e-03
5.811939716339111328e+00,2.560131018981337547e-03
5.861024856567382812e+00,2.509682439267635345e-03
5.910127639770507812e+00,2.459746086969971657e-03
5.959182739257812500e+00,2.413940150290727615e-03
6.008284568786621094e+00,2.366703469306230545e-03
6.057317256927490234e+00,2.324643544852733612e-03
6.106409549713134766e+00,2.280743559822440147e-03
6.155430316925048828e+00,2.242364920675754547e-03
6.204513549804687500e+00,2.201582537963986397e-03
6.253523349761962891e+00,2.166806953027844429e-03
6.302593708038330078e+00,2.128986874595284462e-03
6.351598262786865234e+00,2.096506999805569649e-03
6.400643348693847656e+00,2.062785904854536057e-03
6.466000556945800781e+00,2.022054977715015411e-03
6.515017509460449219e+00,1.992699457332491875e-03
6.564022064208984375e+00,1.965893665328621864e-03
6.613046169281005859e+00,1.938063185662031174e-03
6.662027835845947266e+00,1.915458589792251587e-03
6.711059570312500000e+00,1.888906816020607948e-03
6.760018825531005859e+00,1.870539621450006962e-03
6.809057235717773438e+00,1.845034421421587467e-03
6.857995510101318359e+00,1.830938272178173065e-03
6.907039642333984375e+00,1.806264976039528847e-03
6.955958843231201172e+00,1.796222291886806488e-03
7.005003929138183594e+00,1.772577874362468719e-03
7.053912162780761719e+00,1.765104709193110466e-03
7.102943897247314453e+00,1.744102919474244118e-03
7.151854991912841797e+00,1.738376333378255367e-03
7.200870990753173828e+00,1.720349420793354511e-03
7.266149520874023438e+00,1.707060728222131729e-03
7.315063953399658203e+00,1.704099937342107296e-03
7.364058494567871094e+00,1.690850011073052883e-03
7.412973880767822266e+00,1.689514960162341595e-03
7.461956977844238281e+00,1.678995322436094284e-03
7.510872840881347656e+00,1.679298467934131622e-03
7.559845447540283203e+00,1.671380363404750824e-03
7.608760833740234375e+00,1.673366758041083813e-03
7.657724857330322266e+00,1.667900709435343742e-03
7.706639289855957031e+00,1.671648118644952774e-03
7.755595684051513672e+00,1.668464159592986107e-03
7.804507732391357422e+00,1.674082712270319462e-03
7.853457927703857422e+00,1.672984566539525986e-03
7.902366638183593750e+00,1.680624438449740410e-03
7.951312541961669922e+00,1.681387657299637794e-03
8.000217437744140625e+00,1.691235927864909172e-03
8.065447807312011719e+00,1.699112588539719582e-03
8.114376068115234375e+00,1.705012982711195946e-03
8.163290977478027344e+00,1.713020610623061657e-03
8.212196350097656250e+00,1.725278329104185104e-03
8.261127471923828125e+00,1.730233547277748585e-03
8.310009002685546875e+00,1.749707153066992760e-03
8.358958244323730469e+00,1.750702853314578533e-03
8.407816886901855469e+00,1.775730284862220287e-03
8.456766128540039062e+00,1.776670571416616440e-03
8.505625724792480469e+00,1.802054233849048615e-03
8.554561614990234375e+00,1.807064749300479889e-03
8.603428840637207031e+00,1.831656787544488907e-03
8.652352333068847656e+00,1.841268502175807953e-03
8.701227188110351562e+00,1.864599995315074921e-03
8.750136375427246094e+00,1.879313844256103039e-03
8.815322875976562500e+00,1.906836754642426968e-03
8.864213943481445312e+00,1.926901633851230145e-03
8.913097381591796875e+00,1.951401820406317711e-03
8.961998939514160156e+00,1.968726515769958496e-03
9.010868072509765625e+00,1.999970525503158569e-03
9.059781074523925781e+00,2.013883786275982857e-03
9.108634948730468750e+00,2.049170434474945068e-03
9.157541275024414062e+00,2.066383603960275650e-03
9.206410408020019531e+00,2.094991970807313919e-03
9.255289077758789062e+00,2.121193101629614830e-03
9.304166793823242188e+00,2.147693885490298271e-03
9.353044509887695312e+00,2.173807471990585327e-03
9.401912689208984375e+00,2.205780707299709320e-03
9.450798034667968750e+00,2.229598583653569221e-03
9.515964508056640625e+00,2.268736716359853745e-03
9.564813613891601562e+00,2.311311895027756691e-03
9.613710403442382812e+00,2.330425661057233810e-03
9.662549018859863281e+00,2.379935001954436302e-03
9.711452484130859375e+00,2.396456897258758545e-03
9.760288238525390625e+00,2.443682169541716576e-03
9.809170722961425781e+00,2.473428845405578613e-03
9.858036994934082031e+00,2.505484968423843384e-03
9.906881332397460938e+00,2.538709901273250580e-03
9.955715179443359375e+00,2.562622074037790298e-03
1.000456333160400391e+01,2.571373246610164642e-03
1.005336475372314453e+01,2.610910218209028244e-03
1.010223293304443359e+01,2.609305782243609428e-03
1.015101814270019531e+01,2.653142670169472694e-03
1.021612644195556641e+01,2.678746590390801430e-03
1.026497745513916016e+01,2.688009524717926979e-03
1.031378746032714844e+01,2.718109637498855591e-03
1.036262130737304688e+01,2.733097877353429794e-03
1.041142940521240234e+01,2.765138866379857063e-03
1.046027278900146484e+01,2.772492822259664536e-03
1.050906848907470703e+01,2.808697056025266647e-03
1.055790901184082031e+01,2.818656386807560921e-03
1.060671234130859375e+01,2.850028453394770622e-03
1.065554141998291016e+01,2.867609262466430664e-03
1.070435428619384766e+01,2.893127501010894775e-03
1.075317573547363281e+01,2.911679912358522415e-03
1.080198287963867188e+01,2.941358601674437523e-03
1.085080814361572266e+01,2.956021809950470924e-03
1.091588783264160156e+01,2.988982712849974632e-03
1.096470260620117188e+01,3.009223612025380135e-03
1.101350784301757812e+01,3.034713445231318474e-03
1.106232166290283203e+01,3.056768327951431274e-03
1.111113643646240234e+01,3.074883716180920601e-03
1.115993499755859375e+01,3.108585719019174576e-03
1.120876312255859375e+01,3.117197193205356598e-03
1.125755310058593750e+01,3.151676151901483536e-03
1.130637264251708984e+01,3.168383846059441566e-03
1.135517692565917969e+01,3.192104166373610497e-03
1.140398311614990234e+01,3.214253811165690422e-03
1.145278453826904297e+01,3.241438884288072586e-03
1.150160026550292969e+01,3.255118150264024734e-03
1.155038833618164062e+01,3.294250927865505219e-03
1.161545944213867188e+01,3.323635319247841835e-03
1.166428279876708984e+01,3.333266824483871460e-03
1.171307277679443359e+01,3.364576492458581924e-03
1.176187896728515625e+01,3.384582931175827980e-03
1.181067657470703125e+01,3.411139827221632004e-03
1.185948467254638672e+01,3.427147632464766502e-03
1.190827178955078125e+01,3.464048728346824646e-03
1.195709228515625000e+01,3.469954710453748703e-03
1.200586700439453125e+01,3.514533396810293198e-03
1.205469036102294922e+01,3.519932972267270088e-03
1.210347175598144531e+01,3.557520918548107147e-03
1.215228176116943359e+01,3.575255628675222397e-03
1.220107555389404297e+01,3.602120792493224144e-03
1.226613712310791016e+01,3.636946436017751694e-03
1.231494235992431641e+01,3.653201274573802948e-03
1.236372470855712891e+01,3.692137775942683220e-03
1.241254234313964844e+01,3.699039341881871223e-03
1.246131420135498047e+01,3.746755886822938919e-03
1.251013660430908203e+01,3.750403411686420441e-03
1.255891132354736328e+01,3.793410724028944969e-03
1.260772228240966797e+01,3.807976376265287399e-03
1.265650939941406250e+01,3.840215969830751419e-03
1.270530605316162109e+01,3.866518381983041763e-03
1.275410175323486328e+01,3.891067346557974815e-03
1.280289554595947266e+01,3.917398862540721893e-03
1.285168647766113281e+01,3.948688507080078125e-03
1.290048789978027344e+01,3.967777360230684280e-03
1.296554946899414062e+01,4.002120811492204666e-03
1.301432514190673828e+01,4.049318376928567886e-03
1.306314086914062500e+01,4.055735189467668533e-03
1.311191177368164062e+01,4.104565829038619995e-03
1.316072368621826172e+01,4.116708412766456604e-03
1.320950317382812500e+01,4.157249815762042999e-03
1.325830459594726562e+01,4.180593881756067276e-03
1.330709457397460938e+01,4.211036954075098038e-03
1.335588359832763672e+01,4.246236290782690048e-03
1.340468406677246094e+01,4.266242496669292450e-03
1.345346260070800781e+01,4.309310577809810638e-03
1.350226593017578125e+01,4.327940754592418671e-03
1.355104637145996094e+01,4.368125926703214645e-03
1.361610221862792969e+01,4.407801199704408646e-03
1.366489601135253906e+01,4.437746945768594742e-03
1.371368694305419922e+01,4.468568600714206696e-03
1.376247406005859375e+01,4.505759570747613907e-03
1.381127071380615234e+01,4.530895967036485672e-03
1.386005210876464844e+01,4.575231578201055527e-03
1.390885448455810547e+01,4.594902507960796356e-03
1.395763111114501953e+01,4.641762468963861465e-03
1.400643062591552734e+01,4.665252752602100372e-03
1.405521392822265625e+01,4.705258179455995560e-03
1.410400581359863281e+01,4.738641437143087387e-03
1.415279769897460938e+01,4.769744817167520523e-03
1.420158100128173828e+01,4.813753534108400345e-03
1.425038146972656250e+01,4.835620988160371780e-03
1.431543636322021484e+01,4.880326800048351288e-03
1.436420631408691406e+01,4.937646444886922836e-03
1.441301155090332031e+01,4.954443778842687607e-03
1.446178627014160156e+01,5.005076993256807327e-03
1.451058292388916016e+01,5.032713059335947037e-03
1.455936622619628906e+01,5.073016975075006485e-03
1.460815334320068359e+01,5.112879909574985504e-03
1.465694618225097656e+01,5.142163019627332687e-03
1.470572280883789062e+01,5.194689147174358368e-03
1.475452518463134766e+01,5.212590098381042480e-03
1.480329227447509766e+01,5.278135649859905243e-03
1.485210227966308594e+01,5.284469109028577805e-03
1.490086078643798828e+01,5.358714610338211060e-03
1.496590900421142578e+01,5.409989040344953537e-03
1.501471996307373047e+01,5.416873376816511154e-03
1.506348228454589844e+01,5.485055502504110336e-03
1.511228656768798828e+01,5.501097999513149261e-03
1.516105556488037109e+01,5.560829769819974899e-03
1.520985317230224609e+01,5.586999468505382538e-03
1.525862884521484375e+01,5.637838039547204971e-03
1.530741786956787109e+01,5.674391053617000580e-03
1.535620117187500000e+01,5.716118961572647095e-03
1.540498352050781250e+01,5.763226188719272614e-03
1.545377349853515625e+01,5.795684643089771271e-03
1.550254726409912109e+01,5.853509996086359024e-03
1.555134391784667969e+01,5.876500159502029419e-03
1.560011100769042969e+01,5.945223849266767502e-03
1.566515350341796875e+01,6.007154472172260284e-03
1.571396160125732422e+01,6.013952661305665970e-03
1.576271820068359375e+01,6.098545622080564499e-03
1.581153011322021484e+01,6.101218517869710922e-03
1.586028480529785156e+01,6.187064573168754578e-03
1.590909385681152344e+01,6.192627362906932831e-03
1.595785140991210938e+01,6.272668018937110901e-03
1.600665473937988281e+01,6.287430878728628159e-03
1.605541801452636719e+01,6.358788814395666122e-03
1.610421371459960938e+01,6.383826490491628647e-03
1.615298461914062500e+01,6.446004379540681839e-03
1.620177459716796875e+01,6.481606978923082352e-03
1.625055122375488281e+01,6.534351035952568054e-03
1.631559371948242188e+01,6.593881640583276749e-03
1.636437225341796875e+01,6.647568661719560623e-03
1.641316032409667969e+01,6.684107705950737000e-03
1.646193313598632812e+01,6.748036481440067291e-03
1.651072502136230469e+01,6.777241826057434082e-03
1.655949401855468750e+01,6.843527778983116150e-03
1.660828399658203125e+01,6.876579485833644867e-03
1.665705680847167969e+01,6.933364085853099823e-03
1.670583915710449219e+01,6.979453843086957932e-03
1.675461769104003906e+01,7.025483064353466034e-03
1.680339431762695312e+01,7.076389156281948090e-03
1.685217285156250000e+01,7.122958544641733170e-03
1.690094947814941406e+01,7.172582671046257019e-03
1.696598815917968750e+01,7.237095851451158524e-03
1.701476478576660156e+01,7.289249915629625320e-03
1.706354331970214844e+01,7.334616035223007202e-03
1.711231803894042969e+01,7.390710059553384781e-03
1.716109848022460938e+01,7.433068938553333282e-03
1.720987129211425781e+01,7.491724565625190735e-03
1.725865173339843750e+01,7.535227108746767044e-03
1.730742645263671875e+01,7.587892003357410431e-03
1.735620117187500000e+01,7.641612552106380463e-03
1.740498161315917969e+01,7.683790754526853561e-03
1.745375061035156250e+01,7.749564945697784424e-03
1.750253677368164062e+01,7.780388463288545609e-03
1.755130004882812500e+01,7.858698256313800812e-03
1.760009193420410156e+01,7.877811789512634277e-03
1.766512680053710938e+01,7.944434881210327148e-03
1.771388053894042969e+01,8.035983890295028687e-03
1.776267433166503906e+01,8.049403317272663116e-03
1.781142997741699219e+01,8.138188160955905914e-03
1.786022186279296875e+01,8.156393654644489288e-03
1.790898132324218750e+01,8.240191265940666199e-03
1.795776939392089844e+01,8.265694603323936462e-03
1.800653076171875000e+01,8.340195752680301666e-03
1.805531311035156250e+01,8.377269841730594635e-03
1.810408020019531250e+01,8.441908285021781921e-03
1.815286064147949219e+01,8.482717908918857574e-03
1.820162773132324219e+01,8.549417369067668915e-03
1.825040817260742188e+01,8.586340583860874176e-03
1.831543922424316406e+01,8.655569516122341156e-03
1.836420059204101562e+01,8.727756328880786896e-03
1.841297912597656250e+01,8.766446262598037720e-03
1.846174812316894531e+01,8.825382217764854431e-03
1.851051902770996094e+01,8.882340975105762482e-03
1.855929565429687500e+01,8.921961300075054169e-03
1.860805511474609375e+01,8.999928832054138184e-03
1.865684127807617188e+01,9.018790908157825470e-03
1.870559310913085938e+01,9.115152992308139801e-03
1.875438308715820312e+01,9.122327901422977448e-03
1.880313301086425781e+01,9.218006394803524017e-03
1.885192108154296875e+01,9.234180673956871033e-03
1.890067672729492188e+01,9.318304248154163361e-03
1.896570587158203125e+01,9.385138750076293945e-03
1.901448059082031250e+01,9.424909017980098724e-03
1.906324386596679688e+01,9.485709480941295624e-03
1.911201286315917969e+01,9.536908008158206940e-03
1.916078186035156250e+01,9.592062793672084808e-03
1.920955085754394531e+01,9.642739780247211456e-03
1.925831794738769531e+01,9.702463634312152863e-03
1.930708885192871094e+01,9.747808799147605896e-03
1.935585212707519531e+01,9.814149700105190277e-03
1.940462684631347656e+01,9.853236377239227295e-03
1.945338821411132812e+01,9.926645085215568542e-03
1.950216293334960938e+01,9.960260242223739624e-03
1.955092239379882812e+01,1.003242097795009613e-02
1.961594772338867188e+01,1.010019145905971527e-02
1.966471672058105469e+01,1.015245728194713593e-02
1.971348571777343750e+01,1.020108908414840698e-02
1.976224899291992188e+01,1.027058251202106476e-02
1.981102180480957031e+01,1.030202396214008331e-02
1.985977745056152344e+01,1.038973126560449600e-02
1.990855979919433594e+01,1.040318142622709274e-02
1.995730590820312500e+01,1.050611212849617004e-02
